Number	Time	Temperature
     1	       9	42.8
     2	      60	42.8
     3	     110	42.8
     4	     160	42.4
     5	     210	42.4
     6	     260	42.4
     7	     310	42.4
     8	     360	42.4
     9	     410	42.5
    10	     460	42.7
    11	     510	43.3
    12	     560	43.6
    13	     610	44.2
    14	     660	44.7
    15	     710	45.4
    16	     759	46.1
    17	     809	47.0
    18	     859	48.0
    19	     910	48.7
    20	     961	49.8
    21	    1010	50.7
    22	    1060	52.7
    23	    1110	53.7
    24	    1160	54.7
    25	    1210	55.6
    26	    1261	56.7
    27	    1309	57.7
    28	    1360	58.6
    29	    1409	59.5
    30	    1465	60.6
    31	    1510	61.5
    32	    1560	62.5
    33	    1609	63.1
    34	    1661	63.9
    35	    1710	65.0
    36	    1760	65.6
    37	    1810	65.8
    38	    1860	65.9
    39	    1910	66.2
    40	    1959	66.1
    41	    2009	66.1
    42	    2060	66.1
    43	    2110	65.8
    44	    2160	65.7
    45	    2211	65.6
    46	    2259	65.3
    47	    2310	65.0
    48	    2359	64.5
    49	    2410	64.3
    50	    2460	64.1
    51	    2510	63.7
    52	    2560	63.4
    53	    2611	63.1
    54	    2660	62.9
    55	    2710	62.5
    56	    2760	62.2
    57	    2810	61.9
    58	    2860	61.7
    59	    2911	61.3
    60	    2961	61.1
    61	    3010	60.6
    62	    3060	60.2
    63	    3109	59.9
    64	    3160	59.8
    65	    3210	59.5
    66	    3260	59.1
    67	    3310	59.0
    68	    3360	58.7
    69	    3410	58.5
    70	    3460	58.2
    71	    3509	58.1
    72	    3559	57.9
    73	    3610	57.4
    74	    3660	57.3
    75	    3711	57.0
    76	    3759	56.9
    77	    3810	56.6
    78	    3864	56.5
    79	    3910	56.3
    80	    3962	56.0
    81	    4010	55.9
    82	    4060	55.8
    83	    4110	55.5
    84	    4160	55.4
    85	    4211	55.0
    86	    4259	54.8
    87	    4310	54.7
    88	    4360	54.6
    89	    4410	54.5
    90	    4460	54.4
    91	    4510	54.2
    92	    4560	54.1
    93	    4610	53.8
    94	    4661	53.8
    95	    4710	53.6
    96	    4760	53.4
    97	    4809	53.4
    98	    4860	53.2
    99	    4910	53.0
   100	    4960	52.9
   101	    5011	52.7
   102	    5059	52.6
   103	    5110	52.5
   104	    5161	52.5
   105	    5210	52.3
   106	    5260	52.2
   107	    5310	52.1
   108	    5360	51.9
   109	    5410	51.8
   110	    5460	51.6
   111	    5510	51.5
   112	    5562	51.5
   113	    5610	51.4
   114	    5660	51.2
   115	    5710	51.1
   116	    5759	51.1
   117	    5809	50.9
   118	    5860	50.8
   119	    5910	50.8
   120	    5960	50.7
   121	    6010	50.5
   122	    6059	50.5
   123	    6110	50.2
   124	    6160	50.2
   125	    6210	50.2
   126	    6260	50.1
   127	    6310	50.0
   128	    6359	50.0
   129	    6410	49.8
   130	    6460	49.8
   131	    6511	49.7
   132	    6560	49.5
   133	    6611	49.5
   134	    6659	49.5
   135	    6710	49.3
   136	    6760	49.3
   137	    6809	49.1
   138	    6860	49.1
   139	    6911	49.1
   140	    6960	49.0
   141	    7040	49.0
   142	    7075	48.8
   143	    7118	48.7
   144	    7164	48.7
   145	    7213	48.6
   146	    7260	48.6
   147	    7310	48.6
   148	    7359	48.4
   149	    7410	48.4
   150	    7461	48.3
   151	    7510	48.3
   152	    7559	48.1
   153	    7611	48.1
   154	    7659	48.0
   155	    7710	48.0
   156	    7760	48.0
   157	    7809	47.9
   158	    7863	47.9
   159	    7910	47.9
   160	    7959	47.7
   161	    8009	47.7
   162	    8060	47.6
   163	    8109	47.6
   164	    8159	47.4
   165	    8211	47.4
   166	    8260	47.4
   167	    8309	47.3
   168	    8359	47.3
   169	    8409	47.1
   170	    8460	47.1
   171	    8509	47.1
   172	    8560	47.0
   173	    8610	47.0
   174	    8662	47.0
   175	    8711	46.8
   176	    8759	46.8
   177	    8809	46.8
   178	    8860	46.7
   179	    8909	46.7
   180	    8960	46.7
   181	    9009	46.6
   182	    9060	46.6
   183	    9110	46.6
   184	    9160	46.6
   185	    9212	46.4
   186	    9259	46.4
   187	    9310	46.3
   188	    9360	46.3
   189	    9411	46.3
   190	    9463	46.3
   191	    9510	46.1
   192	    9560	46.1
   193	    9610	46.1
   194	    9660	46.1
   195	    9710	46.0
   196	    9760	46.0
   197	    9810	45.8
   198	    9859	45.8
   199	    9910	45.8
   200	    9960	45.8
   201	   10010	45.8
   202	   10060	45.8
   203	   10110	45.8
   204	   10160	45.8
   205	   10211	46.0
   206	   10259	46.1
   207	   10309	46.4
   208	   10360	46.6
   209	   10410	46.8
   210	   10460	47.7
   211	   10509	48.3
   212	   10560	48.7
   213	   10610	49.3
   214	   10660	50.0
   215	   10709	50.7
   216	   10759	51.4
   217	   10809	52.2
   218	   10860	52.9
   219	   10910	53.7
   220	   10960	54.5
   221	   11009	55.2
   222	   11059	56.7
   223	   11109	57.4
   224	   11160	58.1
   225	   11210	58.7
   226	   11259	59.3
   227	   11310	59.7
   228	   11359	60.1
   229	   11409	60.3
   230	   11459	60.6
   231	   11512	60.7
   232	   11559	60.9
   233	   11610	60.9
   234	   11660	60.9
   235	   11709	60.6
   236	   11761	60.5
   237	   11810	60.3
   238	   11865	60.2
   239	   11909	59.9
   240	   11959	59.8
   241	   12010	59.7
   242	   12059	59.4
   243	   12110	59.1
   244	   12159	59.0
   245	   12210	58.9
   246	   12261	58.5
   247	   12310	58.2
   248	   12359	57.9
   249	   12410	57.7
   250	   12460	57.5
   251	   12512	57.3
   252	   12559	57.1
   253	   12610	56.9
   254	   12660	56.7
   255	   12710	56.5
   256	   12760	56.3
   257	   12809	56.0
   258	   12860	55.9
   259	   12909	55.8
   260	   12960	55.4
   261	   13009	55.2
   262	   13059	55.1
   263	   13110	54.8
   264	   13160	54.7
   265	   13210	54.6
   266	   13259	54.5
   267	   13309	54.4
   268	   13360	54.1
   269	   13409	54.1
   270	   13463	54.0
   271	   13509	53.8
   272	   13559	53.4
   273	   13610	53.3
   274	   13660	53.3
   275	   13709	53.2
   276	   13759	53.0
   277	   13809	52.7
   278	   13860	52.7
   279	   13910	52.6
   280	   13959	52.5
   281	   14009	52.3
   282	   14060	52.3
   283	   14110	52.2
   284	   14159	52.1
   285	   14211	51.8
   286	   14259	51.8
   287	   14309	51.6
   288	   14360	51.5
   289	   14410	51.4
   290	   14461	51.4
   291	   14510	51.2
   292	   14560	51.1
   293	   14610	51.1
   294	   14660	50.9
   295	   14710	50.8
   296	   14760	50.8
   297	   14809	50.7
   298	   14860	50.5
   299	   14909	50.4
   300	   14960	50.4
   301	   15009	50.2
   302	   15060	50.1
   303	   15110	50.1
   304	   15160	50.0
   305	   15211	50.0
   306	   15261	49.8
   307	   15309	49.8
   308	   15360	49.7
   309	   15410	49.5
   310	   15459	49.5
   311	   15510	49.4
   312	   15559	49.4
   313	   15610	49.3
   314	   15660	49.1
   315	   15710	49.1
   316	   15760	49.1
   317	   15810	49.0
   318	   15866	49.0
   319	   15910	48.8
   320	   15960	48.8
   321	   16010	48.7
   322	   16060	48.6
   323	   16110	48.6
   324	   16160	48.6
   325	   16210	48.4
   326	   16260	48.4
   327	   16310	48.3
   328	   16360	48.3
   329	   16410	48.3
   330	   16460	48.1
   331	   16510	48.0
   332	   16559	48.0
   333	   16610	48.0
   334	   16660	47.9
   335	   16710	47.9
   336	   16761	47.9
   337	   16809	47.7
   338	   16860	47.7
   339	   16910	47.6
   340	   16960	47.6
   341	   17011	47.6
   342	   17060	47.4
   343	   17110	47.4
   344	   17160	47.4
   345	   17210	47.3
   346	   17261	47.3
   347	   17310	47.1
   348	   17360	47.0
   349	   17410	47.0
   350	   17465	47.0
   351	   17510	47.0
   352	   17560	47.0
   353	   17610	46.8
   354	   17660	46.7
   355	   17710	46.8
   356	   17759	46.7
   357	   17810	46.7
   358	   17859	46.7
   359	   17909	46.6
   360	   17960	46.6
   361	   18010	46.6
   362	   18060	46.4
   363	   18109	46.4
   364	   18160	46.4
   365	   18209	46.3
   366	   18260	46.3
   367	   18310	46.3
   368	   18359	46.3
   369	   18410	46.1
   370	   18460	46.1
   371	   18511	46.1
   372	   18567	46.0
   373	   18612	46.0
   374	   18660	46.0
   375	   18710	46.0
   376	   18760	45.8
   377	   18809	45.8
   378	   18860	45.8
   379	   18910	45.8
   380	   18959	45.8
   381	   19010	45.8
   382	   19061	46.0
   383	   19109	46.1
   384	   19160	46.3
   385	   19210	46.7
   386	   19260	46.8
   387	   19310	47.4
   388	   19360	48.0
   389	   19410	48.6
   390	   19460	49.1
   391	   19510	49.7
   392	   19560	50.4
   393	   19610	51.1
   394	   19660	51.6
   395	   19710	52.5
   396	   19759	53.3
   397	   19810	54.7
   398	   19864	55.5
   399	   19909	56.3
   400	   19959	57.0
   401	   20010	57.7
   402	   20060	58.3
   403	   20110	59.0
   404	   20161	59.4
   405	   20210	59.8
   406	   20259	60.1
   407	   20310	60.5
   408	   20360	60.6
   409	   20410	60.7
   410	   20460	60.7
   411	   20510	60.7
   412	   20560	60.6
   413	   20610	60.5
   414	   20660	60.3
   415	   20710	60.2
   416	   20760	60.1
   417	   20812	59.8
   418	   20860	59.7
   419	   20910	59.5
   420	   20961	59.1
   421	   21010	59.0
   422	   21060	58.6
   423	   21109	58.3
   424	   21160	58.2
   425	   21210	57.9
   426	   21259	57.8
   427	   21311	57.5
   428	   21360	57.3
   429	   21410	57.1
   430	   21463	57.0
   431	   21509	56.7
   432	   21560	56.6
   433	   21610	56.3
   434	   21660	56.0
   435	   21710	55.8
   436	   21761	55.6
   437	   21810	55.5
   438	   21860	55.4
   439	   21910	55.1
   440	   21961	55.0
   441	   22010	54.8
   442	   22060	54.7
   443	   22110	54.5
   444	   22160	54.4
   445	   22215	54.2
   446	   22262	54.1
   447	   22311	53.8
   448	   22363	53.7
   449	   22412	53.6
   450	   22461	53.4
   451	   22512	53.3
   452	   22560	53.2
   453	   22611	53.0
   454	   22660	52.9
   455	   22710	52.7
   456	   22776	52.6
   457	   22813	52.6
   458	   22859	52.3
   459	   22910	52.2
   460	   22960	52.1
   461	   23009	52.1
   462	   23060	51.9
   463	   23110	51.8
   464	   23159	51.6
   465	   23210	51.6
   466	   23260	51.5
   467	   23309	51.4
   468	   23360	51.2
   469	   23410	51.2
   470	   23461	51.1
   471	   23509	50.9
   472	   23565	50.8
   473	   23611	50.7
   474	   23660	50.7
   475	   23709	50.5
   476	   23759	50.5
   477	   23809	50.4
   478	   23863	50.2
   479	   23910	50.2
   480	   23959	50.1
   481	   24010	50.1
   482	   24060	50.0
   483	   24109	49.8
   484	   24160	49.7
   485	   24210	49.7
   486	   24260	49.7
   487	   24310	49.5
   488	   24360	49.4
   489	   24410	49.4
   490	   24460	49.3
   491	   24510	49.3
   492	   24564	49.3
   493	   24610	49.1
   494	   24660	49.1
   495	   24709	49.0
   496	   24759	48.8
   497	   24809	48.8
   498	   24860	48.7
   499	   24909	48.6
   500	   24959	48.6
   501	   25010	48.6
   502	   25059	48.4
   503	   25110	48.4
   504	   25160	48.4
   505	   25211	48.3
   506	   25260	48.3
   507	   25310	48.1
   508	   25360	48.1
   509	   25410	48.0
   510	   25465	48.0
   511	   25510	48.0
   512	   25560	47.9
   513	   25610	47.9
   514	   25660	47.7
   515	   25798	47.7
   516	   25817	47.7
